"Time","Downstream Lift Monitor: Downstream Lift Monitor (N)"
0.1,0.0029950557091079836
0.2,9.892930321449601E-4
0.30000000000000004,0.0014285588512245083
0.4,3.7124356461165116E-5
0.5,4.8115266571362175E-4
0.6,8.132365407974777E-4
0.7,0.0013262114239001954
0.7999999999999999,0.002453681718177118
0.8999999999999999,0.004277561254485784
0.9999999999999999,0.006701194784917083
1.0999999999999999,0.009808761392997413
1.2,0.013724947280934345
1.3,0.018072350437046043
1.4000000000000001,0.022855156529452133
1.5000000000000002,0.02803711500432923
1.6000000000000003,0.033582742355858855
1.7000000000000004,0.039592540187302586
1.8000000000000005,0.04568729861866217
1.9000000000000006,0.051938320784432536
2.0000000000000004,0.05842974467672915
2.1000000000000005,0.06495107203149415
2.2000000000000006,0.07138815763762557
2.3000000000000007,0.07777418832104785
2.400000000000001,0.08397327943428275
2.500000000000001,0.08996247470094546
2.600000000000001,0.09583156934657727
2.700000000000001,0.10145759704831088
2.800000000000001,0.1068061755006579
2.9000000000000012,0.11181113226734138
3.0000000000000013,0.11633525068868249
3.1000000000000014,0.12028983135355119
3.2000000000000015,0.12361700608860522
3.3000000000000016,0.12624046023625796
3.4000000000000017,0.1281390922211399
3.5000000000000018,0.12928848440923024
3.600000000000002,0.12963664554879983
3.700000000000002,0.1291631819573131
3.800000000000002,0.12780854589271576
3.900000000000002,0.12554332361573997
4.000000000000002,0.1223607840546629
4.100000000000001,0.11826453046912468
4.200000000000001,0.11321828063522113
4.300000000000001,0.10722931453956383
4.4,0.10027901650903483
4.5,0.09235580747818953
4.6,0.0835100065551919
4.699999999999999,0.07382616885734544
4.799999999999999,0.06330489984561534
4.899999999999999,0.051975873779860106
4.999999999999998,0.03993155782059984
5.099999999999998,0.027180894327719914
5.1999999999999975,0.013739427280505466
5.299999999999997,-3.75227211316778E-4
5.399999999999997,-0.015021626003570246
5.4999999999999964,-0.030176642265792454
5.599999999999996,-0.04575694078549379
5.699999999999996,-0.0618219885024568
5.799999999999995,-0.07811572181558862
5.899999999999995,-0.09468998885529847
5.999999999999995,-0.11140518292384077
6.099999999999994,-0.12823183796691226
6.199999999999994,-0.14499939594085226
6.299999999999994,-0.16174402682405814
6.399999999999993,-0.17836321062705368
6.499999999999993,-0.1946923091725723
6.5999999999999925,-0.21076343955225746
6.699999999999992,-0.2264025030766337
6.799999999999992,-0.24149669769451568
6.8999999999999915,-0.25602553609553097
6.999999999999991,-0.2698184395369655
7.099999999999991,-0.2825386345340907
7.19999999999999,-0.2936717640535733
7.29999999999999,-0.3033927316687675
7.39999999999999,-0.31146126129284746
7.499999999999989,-0.3179274815542108
7.599999999999989,-0.32257760692011744
7.699999999999989,-0.32528500115074854
7.799999999999988,-0.3261896009452879
7.899999999999988,-0.3249982065612171
7.999999999999988,-0.32170230210723244
8.099999999999987,-0.3156597803485084
8.199999999999987,-0.30724349905596904
8.299999999999986,-0.2957963969679629
8.399999999999986,-0.28078104952627875
8.499999999999986,-0.26278790870139296
8.599999999999985,-0.24169876742949573
8.699999999999985,-0.21738146542365913
8.799999999999985,-0.18967925485516487
8.899999999999984,-0.15901095437704726
8.999999999999984,-0.12504728238541202
9.099999999999984,-0.08896242686823806
9.199999999999983,-0.051020632542832955
9.299999999999983,-0.011411885562050451
9.399999999999983,0.0293907001265475
9.499999999999982,0.07102508676696145
9.599999999999982,0.11256110324948729
9.699999999999982,0.1536211498230201
9.799999999999981,0.1933040522401679
9.89999999999998,0.23097158024317993
9.99999999999998,0.2661013353208576
10.09999999999998,0.2979097255158196
10.19999999999998,0.326313308454074
10.29999999999998,0.3508363411773672
10.399999999999979,0.3710913524136293
10.499999999999979,0.3868670933878424
10.599999999999978,0.39811575267367577
10.699999999999978,0.4050101078765866
10.799999999999978,0.4076935731201279
10.899999999999977,0.4063869971685564
10.999999999999977,0.40151814999916785
11.099999999999977,0.39342055460109193
11.199999999999976,0.38246605530029326
11.299999999999976,0.36925735473641613
11.399999999999975,0.35412049926046923
11.499999999999975,0.3374823424341348
11.599999999999975,0.3194424324228542
11.699999999999974,0.30014639943023724
11.799999999999974,0.27997641246370036
11.899999999999974,0.25894852102566684
11.999999999999973,0.23681776126622553
12.099999999999973,0.21352444882057492
12.199999999999973,0.18911115936479905
12.299999999999972,0.16377052900163572
12.399999999999972,0.13729776060806378
12.499999999999972,0.1103008425890636
12.599999999999971,0.08318299926615862
12.69999999999997,0.05670669894190873
12.79999999999997,0.031479113938706775
12.89999999999997,0.008828085676139033
12.99999999999997,-0.010244954428931242
13.09999999999997,-0.025223111765796502
13.199999999999969,-0.03479467009022543
13.299999999999969,-0.038956103702266036
13.399999999999968,-0.03758379568155859
13.499999999999968,-0.030990240248129793
13.599999999999968,-0.0196333934352402
13.699999999999967,-0.004213588126595583
13.799999999999967,0.013995234739538549
13.899999999999967,0.03394188111771496
13.999999999999966,0.05296452981601393
14.099999999999966,0.0684641004524119
14.199999999999966,0.07861619182984105
14.299999999999965,0.0828116679351285
14.399999999999965,0.07901640868327665
14.499999999999964,0.06651279778547141
14.599999999999964,0.0495957314999409
14.699999999999964,0.03354304346429578
14.799999999999963,0.02132873893481476
14.899999999999963,0.0159502662777185
14.999999999999963,0.017330356093590515
15.099999999999962,0.024348231878038307
15.199999999999962,0.03713266957863219
15.299999999999962,0.05339350281666092
15.399999999999961,0.0759871403578565
15.499999999999961,0.10187293104564354
15.59999999999996,0.1285221124750132
15.69999999999996,0.15504775267078666
15.79999999999996,0.18211908851831277
15.89999999999996,0.2081251111372873
15.99999999999996,0.23236393061090724
16.09999999999996,0.2536095467689452
16.19999999999996,0.27178388833719286
16.29999999999996,0.2875771323852231
16.399999999999963,0.3021959824555757
16.499999999999964,0.3149428746596855
16.599999999999966,0.3268578248842222
16.699999999999967,0.33826316259541955
16.79999999999997,0.3498164471286127
16.89999999999997,0.3615171721677951
16.99999999999997,0.3726718592663553
17.099999999999973,0.3819040594650293
17.199999999999974,0.38716458755096866
17.299999999999976,0.38874117365660216
17.399999999999977,0.3897047338276727
17.49999999999998,0.39214365448440985
17.59999999999998,0.39393572340369176
17.69999999999998,0.38889627857860193
17.799999999999983,0.3742730206864273
17.899999999999984,0.35430620856489753
17.999999999999986,0.3334949172879693
18.099999999999987,0.30916189141257916
18.19999999999999,0.2774708287366651
18.29999999999999,0.23692311806408942
18.39999999999999,0.19111946194305207
18.499999999999993,0.1420198060181091
18.599999999999994,0.09165503888085305
18.699999999999996,0.04058469570580605
18.799999999999997,-0.008843407295673344
18.9,-0.05351284785862773
19.0,-0.09238332480350125
19.1,-0.12540581967645403
19.200000000000003,-0.15325333709973912
19.300000000000004,-0.17647146131655686
19.400000000000006,-0.19547088739288715
19.500000000000007,-0.21167649593181692
19.60000000000001,-0.22563073893687755
19.70000000000001,-0.23686900729594473
19.80000000000001,-0.24445821771931442
19.900000000000013,-0.24872630720447023
20.000000000000014,-0.24880647034943226
20.100000000000016,-0.24434261610547678
20.200000000000017,-0.23701387515784278
20.30000000000002,-0.22825206672714707
20.40000000000002,-0.21983761112396327
20.50000000000002,-0.21380853909425798
20.600000000000023,-0.20933958910408892
20.700000000000024,-0.20555126023409823
20.800000000000026,-0.20072373655676617
20.900000000000027,-0.18943193917752624
21.00000000000003,-0.16568779053756538
21.10000000000003,-0.14059340532139664
21.20000000000003,-0.116732284449026
21.300000000000033,-0.09165904755825091
21.400000000000034,-0.0548793093414576
21.500000000000036,-0.0183814559944471
21.600000000000037,0.01436453667686704
21.70000000000004,0.044034964746446845
21.80000000000004,0.07367147757731225
21.90000000000004,0.10452632849199829
22.000000000000043,0.13459619680792
22.100000000000044,0.15883164741391845
22.200000000000045,0.16872482765968075
22.300000000000047,0.17813292242653203
22.40000000000005,0.1863607227567829
22.50000000000005,0.1936993714373246
22.60000000000005,0.19745825841524486
22.700000000000053,0.1985258750286123
22.800000000000054,0.19638838683941778
22.900000000000055,0.19340580963162357
23.000000000000057,0.18902799745079313
23.10000000000006,0.18346409951103235
23.20000000000006,0.17801792245444434
23.30000000000006,0.17289041516434406
23.400000000000063,0.16815332457511784
23.500000000000064,0.16559616211055306
23.600000000000065,0.1633374147586905
23.700000000000067,0.16115469733938045
23.800000000000068,0.1589336370112442
23.90000000000007,0.15490959774604776
24.00000000000007,0.14840776650783644
24.100000000000072,0.13946994122512454
24.200000000000074,0.12722247008440538
24.300000000000075,0.11353609257845461
24.400000000000077,0.09877528252705159
24.500000000000078,0.085021080821624
24.60000000000008,0.06876781639697777
24.70000000000008,0.05062339578825036
24.800000000000082,0.03413574346517112
24.900000000000084,0.020483436340873077
25.000000000000085,0.010940897717679287
25.100000000000087,0.0032212194958846077
25.200000000000088,-0.004782277472926746
25.30000000000009,-0.00809837943923374
25.40000000000009,-0.008670808018262904
25.500000000000092,-0.005876402558450688
25.600000000000094,-5.205067247686162E-4
25.700000000000095,0.006932964687488413
25.800000000000097,0.01565022016906972
25.900000000000098,0.02544847199492198
26.0000000000001,0.034928997347656345
26.1000000000001,0.04344415370900785
26.200000000000102,0.05064390457195788
26.300000000000104,0.0566575383034514
26.400000000000105,0.06150288295816509
26.500000000000107,0.06599417741626967
26.600000000000108,0.07118536604691277
26.70000000000011,0.07723322159660342
26.80000000000011,0.08491544990219897
26.900000000000112,0.09452551392139491
27.000000000000114,0.10567152973420174
27.100000000000115,0.11779995572173119
27.200000000000117,0.13095336112791198
27.300000000000118,0.14479375557747476
27.40000000000012,0.15984082750389147
27.50000000000012,0.17617808308985927
27.600000000000122,0.19401580323313367
27.700000000000124,0.21237074908372267
27.800000000000125,0.22791476272404168
27.900000000000126,0.23795973201007192
28.000000000000128,0.2361681543071581
28.10000000000013,0.21745120153633268
28.20000000000013,0.19466822530915612
28.300000000000132,0.1677515435510164
28.400000000000134,0.1350404489013451
28.500000000000135,0.09811485796653728
28.600000000000136,0.06966197540299954
28.700000000000138,0.045834206465575136
28.80000000000014,0.025977733352364578
28.90000000000014,0.009520384827918903
29.000000000000142,-0.0010106780200420376
29.100000000000144,-0.005125727474102407
29.200000000000145,-0.006915600309041983
29.300000000000146,-0.004483050486043469
29.400000000000148,0.002561371822075619
29.50000000000015,0.009626563860512033
29.60000000000015,0.01776321207611821
29.700000000000152,0.023790865047099163
29.800000000000153,0.029055806773325296
29.900000000000155,0.03329936803982555
30.000000000000156,0.036833137444385225
30.100000000000158,0.0397910717805236
30.20000000000016,0.04089313403742136
30.30000000000016,0.04147262744283134
30.400000000000162,0.04319867834687134
30.500000000000163,0.04519829582984243
30.600000000000165,0.04860395423058503
30.700000000000166,0.05503969015043145
30.800000000000168,0.06291514813673245
30.90000000000017,0.07486951868196325
31.00000000000017,0.0863931311244726
31.100000000000172,0.09467940478991507
31.200000000000173,0.09808724366029598
31.300000000000175,0.10494064116197784
31.400000000000176,0.11592749708823125
31.500000000000178,0.12229775238939258
31.60000000000018,0.11570501041688294
31.70000000000018,0.10278703874507267
31.800000000000182,0.08982558181018717
31.900000000000183,0.07487090010813233
32.000000000000185,0.05255305691514845
32.100000000000186,0.02281464630748206
32.20000000000019,-0.009968920508412835
32.30000000000019,-0.04404661772106875
32.40000000000019,-0.07770359479059391
32.50000000000019,-0.10976645888411769
32.60000000000019,-0.13695167705950653
32.700000000000195,-0.1584321860748659
32.800000000000196,-0.17388288877074032
32.9000000000002,-0.18457292829834437
33.0000000000002,-0.1911518535256432
33.1000000000002,-0.1951015109625756
33.2000000000002,-0.19828409168262445
33.3000000000002,-0.20099268816957355
33.400000000000205,-0.20241734486059715
33.500000000000206,-0.2024477848658655
33.60000000000021,-0.19936358315201946
33.70000000000021,-0.19248187596938446
33.80000000000021,-0.18130832604388308
33.90000000000021,-0.1673781636521598
34.00000000000021,-0.15154689400705737
34.100000000000215,-0.13750176544292686
34.200000000000216,-0.12575580349560286
34.30000000000022,-0.11550530372962965
34.40000000000022,-0.10622201183817447
34.50000000000022,-0.09409472080754834
34.60000000000022,-0.07177383202945117
34.70000000000022,-0.04115747030141812
34.800000000000225,-0.01229258563883939
34.900000000000226,0.015236253239203761
35.00000000000023,0.04886272606923004
35.10000000000023,0.0889400183398277
35.20000000000023,0.12323057571857904
35.30000000000023,0.1511696648393484
35.40000000000023,0.17590783362971885
35.500000000000234,0.19946831564809703
35.600000000000236,0.2206024008852185
35.70000000000024,0.2367235448555865
35.80000000000024,0.23389667638359163
35.90000000000024,0.229296892167523
36.00000000000024,0.2199845642979766
36.10000000000024,0.20904453310533214
36.200000000000244,0.1949723643421007
36.300000000000246,0.17773809663836643
36.40000000000025,0.1582718157592342
36.50000000000025,0.1373214013719861
36.60000000000025,0.11653672423966915
36.70000000000025,0.0964799288447569
36.80000000000025,0.07804936605800157
36.900000000000254,0.06161507216692168
37.000000000000256,0.04878026564767159
37.10000000000026,0.03831942335120183
37.20000000000026,0.02955832050468013
37.30000000000026,0.022436620931286164
37.40000000000026,0.01575314815151699
37.50000000000026,0.007774837662258957
37.600000000000264,-8.053138501790075E-4
37.700000000000266,-0.012023270444635699
37.80000000000027,-0.02401724246809812
37.90000000000027,-0.03626426575775275
38.00000000000027,-0.04603349061374119
38.10000000000027,-0.05704798255120441
38.20000000000027,-0.06910794046153605
38.300000000000274,-0.0783136383468237
38.400000000000276,-0.08350634185435306
38.50000000000028,-0.0827854020457683
38.60000000000028,-0.07931783456975147
38.70000000000028,-0.07583707828262112
38.80000000000028,-0.06711829714662806
38.90000000000028,-0.05526205662710207
39.000000000000284,-0.03965417784249065
39.100000000000286,-0.021684681523115305
39.20000000000029,-0.0020210616959300655
39.30000000000029,0.018260625300225444
39.40000000000029,0.03868898008276017
39.50000000000029,0.05772088312617991
39.60000000000029,0.07468173889756724
39.700000000000294,0.08891957930030576
39.800000000000296,0.1004783456115195
39.9000000000003,0.10959862424762369
40.0000000000003,0.11671555164198395
40.1000000000003,0.12237981886417627
40.2000000000003,0.12748417847316657
40.3000000000003,0.13298983377964477
40.400000000000304,0.13938992385277163
40.500000000000306,0.14641720933169383
40.60000000000031,0.1544563556794824
40.70000000000031,0.163174612771098
40.80000000000031,0.1733816429448562
40.90000000000031,0.18460755102588133
41.00000000000031,0.19724892535651675
41.100000000000314,0.2119888051721462
41.200000000000315,0.227564265778847
41.30000000000032,0.24204257348824015
41.40000000000032,0.2531519099620896
41.50000000000032,0.2560450188515359
41.60000000000032,0.2423301020970841
41.70000000000032,0.22026133859327998
41.800000000000324,0.19393866916432972
41.900000000000325,0.1628113833236408
42.00000000000033,0.12268526935343375
42.10000000000033,0.08505728990786268
42.20000000000033,0.05318065143076983
42.30000000000033,0.025458913198415235
42.40000000000033,0.0017712615674725252
42.500000000000334,-0.02037073338864041
42.600000000000335,-0.03511273465940634
42.70000000000034,-0.0442151266271008
42.80000000000034,-0.050273931674393355
42.90000000000034,-0.05127477672184463
43.00000000000034,-0.04752651223365367
43.10000000000034,-0.04324826109875721
43.200000000000344,-0.03783788266592424
43.300000000000345,-0.03223265623567122
43.40000000000035,-0.02640363017122916
43.50000000000035,-0.020197951940771206
43.60000000000035,-0.014310811412054085
43.70000000000035,-0.008830314965994622
43.80000000000035,-0.0033476337107107967
43.900000000000354,7.628872414843832E-4
44.000000000000355,0.005442227574003128
44.10000000000036,0.010843638781019507
44.20000000000036,0.01753717125284983
44.30000000000036,0.02648426959852927
44.40000000000036,0.03716437938063907
44.50000000000036,0.05127389846040998
44.600000000000364,0.06675012179947874
44.700000000000365,0.07982727793149673
44.80000000000037,0.08634186287210548
44.90000000000037,0.09302806609886834
45.00000000000037,0.1046825721363689
45.10000000000037,0.11511646642244582
45.20000000000037,0.1139198288231473
45.300000000000374,0.1026444419318584
45.400000000000375,0.08887330642967804
45.50000000000038,0.07443755994210065
45.60000000000038,0.05348758574562408
45.70000000000038,0.024098685467160357
45.80000000000038,-0.010319754486959515
45.90000000000038,-0.04710081403388132
46.000000000000384,-0.08474862520819096
46.100000000000385,-0.12186442615423275
46.20000000000039,-0.15550815559706596
46.30000000000039,-0.18377855382266509
46.40000000000039,-0.20612415842340118
46.50000000000039,-0.22293492287230965
46.60000000000039,-0.23489035502524144
46.700000000000394,-0.24285930704139813
46.800000000000395,-0.24857410248271186
46.9000000000004,-0.2535836069189115
47.0000000000004,-0.25728528663102973
47.1000000000004,-0.25903719235381434
47.2000000000004,-0.2589853279009734
47.3000000000004,-0.25486225260337164
47.400000000000404,-0.24734249543350195
47.500000000000405,-0.2369856354352122
47.600000000000406,-0.22538023268499632
47.70000000000041,-0.21423482165711824
47.80000000000041,-0.2046185483575744
47.90000000000041,-0.1950874422474162
48.00000000000041,-0.1849274325735124
48.10000000000041,-0.16920891363210253
48.200000000000415,-0.13951799099585166
48.300000000000416,-0.10277185100693931
48.40000000000042,-0.06632054438446602
48.50000000000042,-0.027992254809735977
48.60000000000042,0.02125570950470193
48.70000000000042,0.07224286731749906
48.80000000000042,0.11829815066927432
48.900000000000425,0.15927388535007317
49.000000000000426,0.19907193766133596
49.10000000000043,0.23828749449602604
49.20000000000043,0.27210764662482845
49.30000000000043,0.30087719581238026
49.40000000000043,0.31000327076213874
49.50000000000043,0.3177964347120651
49.600000000000435,0.3209084524074238
49.700000000000436,0.3208385445543259
49.80000000000044,0.31521087824181415
49.90000000000044,0.3049061706495835
50.00000000000044,0.2904979530007861
50.10000000000044,0.27470299574224055
50.20000000000044,0.2566241759490343
50.300000000000445,0.23787892031393595
50.400000000000446,0.2190631334514049
50.50000000000045,0.20088579558711434
50.60000000000045,0.18295053658392324
50.70000000000045,0.16667933584610434
50.80000000000045,0.15331992559827126
50.90000000000045,0.14000104170844843
51.000000000000455,0.1278260660234543
51.100000000000456,0.1152730762506286
51.20000000000046,0.10021189886572941
51.30000000000046,0.08386144877037309
51.40000000000046,0.06454040846585422
51.50000000000046,0.043908588336847604
51.60000000000046,0.022370088617157384
51.700000000000465,0.0029121641522678685
51.800000000000466,-0.01852602792783298
51.90000000000047,-0.04116650251057859
52.00000000000047,-0.06090936963294246
