"Time","Downstream Lift Monitor: Downstream Lift Monitor (N)"
0.1,3.511362953653903E-4
0.2,-2.6571888398336466E-4
0.30000000000000004,4.021444116964522E-4
0.4,4.6028225176406035E-4
0.5,6.222940047991236E-4
0.6,7.748386695439011E-4
0.7,9.984370835679768E-4
0.7999999999999999,0.0012380355532927035
0.8999999999999999,0.0014586472416974593
0.9999999999999999,0.001709064434991938
1.0999999999999999,0.0019148053465450517
1.2,0.002124994304038728
1.3,0.00237937416685329
1.4000000000000001,0.0027141865279089183
1.5000000000000002,0.003072288699038365
1.6000000000000003,0.0034381864012411802
1.7000000000000004,0.003726070741531525
1.8000000000000005,0.004016546666643261
1.9000000000000006,0.004331093021644953
2.0000000000000004,0.004701104390986189
2.1000000000000005,0.00507429852266365
2.2000000000000006,0.005516303042019624
2.3000000000000007,0.005973249165799065
2.400000000000001,0.006439247669506286
2.500000000000001,0.006863244530427345
2.600000000000001,0.007224267997302735
2.700000000000001,0.007574917598874666
2.800000000000001,0.007908043870999911
2.9000000000000012,0.008197785160929245
3.0000000000000013,0.008481981697884045
3.1000000000000014,0.008758648821605057
3.2000000000000015,0.009014810756680609
3.3000000000000016,0.009236349627753267
3.4000000000000017,0.009428857427936931
3.5000000000000018,0.009578831983311595
3.600000000000002,0.009639253278495468
3.700000000000002,0.009603174966631238
3.800000000000002,0.009512905752253503
3.900000000000002,0.009291985972884281
4.000000000000002,0.008941694499293109
4.100000000000001,0.008512388675758122
4.200000000000001,0.00792148812150002
4.300000000000001,0.007225615155104288
4.4,0.006424666312224051
4.5,0.005671892985405585
4.6,0.004172280532593496
4.699999999999999,0.003114265869988111
4.799999999999999,0.0019000062891468567
4.899999999999999,5.562767009903748E-4
4.999999999999998,-0.0011551731343159653
5.099999999999998,-0.0024274423631679767
5.1999999999999975,-0.0039600773957616945
5.299999999999997,-0.005362487177786548
5.399999999999997,-0.006891808159470385
5.4999999999999964,-0.008292267331846442
5.599999999999996,-0.009662489528500982
5.699999999999996,-0.011133233976273346
5.799999999999995,-0.012674678141942512
5.899999999999995,-0.013610881874769148
5.999999999999995,-0.014756034791592331
6.099999999999994,-0.015341839190853301
6.199999999999994,-0.016221864087147264
6.299999999999994,-0.016946242663622876
6.399999999999993,-0.01761971499442699
6.499999999999993,-0.017703660823744277
6.5999999999999925,-0.017790685820346208
6.699999999999992,-0.017591715529465597
6.799999999999992,-0.01747114280130091
6.8999999999999915,-0.01712083684497533
6.999999999999991,-0.016289697201946174
7.099999999999991,-0.015412123216885468
7.19999999999999,-0.014453910637929657
7.29999999999999,-0.013102235738352503
7.39999999999999,-0.01201277106912482
7.499999999999989,-0.010260450719630533
7.599999999999989,-0.008857279109118946
7.699999999999989,-0.007064062912965865
7.799999999999988,-0.004986883659460812
7.899999999999988,-0.0032146779601312323
7.999999999999988,-0.0011588658054464665
8.099999999999987,8.751459368665254E-4
8.199999999999987,0.0027779433241048425
8.299999999999986,0.005090751035135021
8.399999999999986,0.007156240697954345
8.499999999999986,0.008827625221004963
8.599999999999985,0.010796271947420102
8.699999999999985,0.012508401091836737
8.799999999999985,0.013921034794540883
8.899999999999984,0.015135720940487393
8.999999999999984,0.01608955838898389
9.099999999999984,0.016724448482751002
9.199999999999983,0.017317117083274058
9.299999999999983,0.017032196387643056
9.399999999999983,0.016812780740994886
9.499999999999982,0.016038314552274165
9.599999999999982,0.014804765176537676
9.699999999999982,0.01319485123942003
9.799999999999981,0.011168017091792874
9.89999999999998,0.008933453865510735
9.99999999999998,0.006148444227917759
10.09999999999998,0.003154742524124974
10.19999999999998,-1.311103737312541E-4
10.29999999999998,-0.0037906704056573327
10.399999999999979,-0.007958141034113296
10.499999999999979,-0.011972122757152974
10.599999999999978,-0.016529197970170103
10.699999999999978,-0.020926047809775188
10.799999999999978,-0.025970160929093072
10.899999999999977,-0.030773700398060422
10.999999999999977,-0.03592250430111299
11.099999999999977,-0.04081547326407773
11.199999999999976,-0.04517169685029105
11.299999999999976,-0.05010388050388244
11.399999999999975,-0.05496456246738329
11.499999999999975,-0.05893863201936507
11.599999999999975,-0.0633195691472946
11.699999999999974,-0.06720395619405828
11.799999999999974,-0.07016026364469136
11.899999999999974,-0.07326633875702827
11.999999999999973,-0.07569394256380932
12.099999999999973,-0.07783852856064057
12.199999999999973,-0.07914229089231901
12.299999999999972,-0.0803111171169802
12.399999999999972,-0.0806415401378482
12.499999999999972,-0.08026056526805433
12.599999999999971,-0.07919338089553843
12.69999999999997,-0.07770515929507847
12.79999999999997,-0.07566543432915661
12.89999999999997,-0.07297616319834759
12.99999999999997,-0.06951326897415874
13.09999999999997,-0.0648827370967845
13.199999999999969,-0.06031662979728757
13.299999999999969,-0.05492880364533259
13.399999999999968,-0.04894885670233571
13.499999999999968,-0.04240517386506829
13.599999999999968,-0.03530744189332217
13.699999999999967,-0.02771109049210649
13.799999999999967,-0.019349115730543865
13.899999999999967,-0.011021752098140124
13.999999999999966,-0.0020775689761626274
14.099999999999966,0.007261459611550365
14.199999999999966,0.016534417695718555
14.299999999999965,0.026560642673294603
14.399999999999965,0.036769010145243204
14.499999999999964,0.047082615787943885
14.599999999999964,0.057323401570072284
14.699999999999964,0.0675020743898605
14.799999999999963,0.07771070740866846
14.899999999999963,0.08800452050022764
14.999999999999963,0.09755217562953893
15.099999999999962,0.10748166143792127
15.199999999999962,0.11642675386670683
15.299999999999962,0.1257884564853624
15.399999999999961,0.13357091679397515
15.499999999999961,0.1415922240960536
15.59999999999996,0.14837368582132213
15.69999999999996,0.15404471126509997
15.79999999999996,0.15939494526184034
15.89999999999996,0.1634553438488028
15.99999999999996,0.16643218580250407
16.09999999999996,0.1676548554278781
16.19999999999996,0.16827562423080808
16.29999999999996,0.1672329135343396
16.399999999999963,0.1640979986347236
16.499999999999964,0.16101573535834632
16.599999999999966,0.15532532362502816
16.699999999999967,0.14893223226847474
16.79999999999997,0.14132635442111957
16.89999999999997,0.13261275800014266
16.99999999999997,0.12295825276091328
17.099999999999973,0.11314574151421256
17.199999999999974,0.10214132419175656
17.299999999999976,0.0913691777173874
17.399999999999977,0.08019017820437649
17.49999999999998,0.06912376019029043
17.59999999999998,0.05834681488685395
17.69999999999998,0.04691160534043585
17.799999999999983,0.03649074278704567
17.899999999999984,0.02557116625469054
17.999999999999986,0.014994807352754248
18.099999999999987,0.004571992694386651
18.19999999999999,-0.006454790844602445
18.29999999999999,-0.017028675361434327
18.39999999999999,-0.028081033979351015
18.499999999999993,-0.039327024849633
18.599999999999994,-0.05162774477108762
18.699999999999996,-0.06420262824064182
18.799999999999997,-0.07732900690351611
18.9,-0.09131144754159941
19.0,-0.10594606123019573
19.1,-0.12178971914050288
19.200000000000003,-0.1368913893338375
19.300000000000004,-0.15419347027938365
19.400000000000006,-0.1704229499468256
19.500000000000007,-0.18709599147201647
19.60000000000001,-0.20331118423829922
19.70000000000001,-0.21911135256559708
19.80000000000001,-0.23375398759187987
19.900000000000013,-0.24704264595554656
20.000000000000014,-0.25846085886883424
20.100000000000016,-0.2670866902356133
20.200000000000017,-0.2755913089781808
20.30000000000002,-0.28130096789461073
20.40000000000002,-0.28644769193247127
20.50000000000002,-0.29094959211830546
20.600000000000023,-0.2968171267733832
20.700000000000024,-0.30528016052052537
20.800000000000026,-0.3156077987897921
20.900000000000027,-0.3281606906665506
21.00000000000003,-0.3413908691646343
21.10000000000003,-0.35604152002322575
21.20000000000003,-0.3675768111605136
21.300000000000033,-0.3767291517713659
21.400000000000034,-0.37977078639223427
21.500000000000036,-0.37637615890507026
21.600000000000037,-0.36515322182687865
21.70000000000004,-0.3451901380190368
21.80000000000004,-0.31650842893828035
21.90000000000004,-0.27893220499446875
22.000000000000043,-0.23290556178873456
22.100000000000044,-0.1787862293209896
22.200000000000045,-0.11741585350739148
22.300000000000047,-0.05060221689528503
22.40000000000005,0.021934048236683594
22.50000000000005,0.09691172522384077
22.60000000000005,0.17386570624825387
22.700000000000053,0.25091018771401014
22.800000000000054,0.32556647406309636
22.900000000000055,0.3976561694351947
23.000000000000057,0.465669351657238
23.10000000000006,0.5279426581379142
23.20000000000006,0.583551901169406
23.30000000000006,0.6323087029206031
23.400000000000063,0.6709144997978075
23.500000000000064,0.7024953268101364
23.600000000000065,0.7252182725374633
23.700000000000067,0.7353148530365903
23.800000000000068,0.7379417736343115
23.90000000000007,0.7304304615866599
24.00000000000007,0.7118053241154174
24.100000000000072,0.6848270785782865
24.200000000000074,0.6468142997029541
24.300000000000075,0.6006755866828423
24.400000000000077,0.5450468428266237
24.500000000000078,0.4810788591391442
24.60000000000008,0.40972759929443847
24.70000000000008,0.3313112570800606
24.800000000000082,0.24839381672358565
24.900000000000084,0.162383072536609
25.000000000000085,0.07635202569703554
25.100000000000087,-0.007578041664988232
25.200000000000088,-0.08672604068681838
25.30000000000009,-0.15816069951055325
25.40000000000009,-0.22068365463488274
25.500000000000092,-0.2722615066353644
25.600000000000094,-0.3135326725785609
25.700000000000095,-0.34287436423179773
25.800000000000097,-0.3622725471746561
25.900000000000098,-0.3744184697424787
26.0000000000001,-0.3796895867827317
26.1000000000001,-0.38243577363826614
26.200000000000102,-0.3803884072062123
26.300000000000104,-0.3804584221033582
26.400000000000105,-0.38436472861401993
26.500000000000107,-0.3883776749564353
26.600000000000108,-0.3970238971424619
26.70000000000011,-0.402629555622162
26.80000000000011,-0.41450272165563135
26.900000000000112,-0.42533836111075163
27.000000000000114,-0.43643267406074754
27.100000000000115,-0.44390325863858476
27.200000000000117,-0.4512531136341091
27.300000000000118,-0.4523752216009459
27.40000000000012,-0.450014801362729
27.50000000000012,-0.44101068111487407
27.600000000000122,-0.42587985487480523
27.700000000000124,-0.402102529230329
27.800000000000125,-0.37021686722592356
27.900000000000126,-0.3272772879353594
28.000000000000128,-0.2734341187886028
28.10000000000013,-0.20764976005469396
28.20000000000013,-0.1306736063221571
28.300000000000132,-0.04356459920174494
28.400000000000134,0.05139200369459345
28.500000000000135,0.15055668309793818
28.600000000000136,0.24912058429922707
28.700000000000138,0.34425869435376555
28.80000000000014,0.43504230669206506
28.90000000000014,0.5148097346992632
29.000000000000142,0.5852615829633009
29.100000000000144,0.6484528423119502
29.200000000000145,0.6971725199228042
29.300000000000146,0.738587356688804
29.400000000000148,0.7683198730293644
29.50000000000015,0.7862955796715188
29.60000000000015,0.799214923417001
29.700000000000152,0.8004974821258992
29.800000000000153,0.7949602631723349
29.900000000000155,0.7809789303269423
30.000000000000156,0.7587127315863593
30.100000000000158,0.7273668420910497
30.20000000000016,0.6850638063787254
30.30000000000016,0.631706745729615
30.400000000000162,0.5647034440660552
30.500000000000163,0.4844181629492792
30.600000000000165,0.39078830325701364
30.700000000000166,0.2864908466350309
30.800000000000168,0.1747365302252818
30.90000000000017,0.059683049323413465
31.00000000000017,-0.05302676747154304
31.100000000000172,-0.15920849082447208
31.200000000000173,-0.25489738265959294
31.300000000000175,-0.3373739468238977
31.400000000000176,-0.40516422243189854
31.500000000000178,-0.45883379929149265
31.60000000000018,-0.498156533317866
31.70000000000018,-0.5247616196807903
31.800000000000182,-0.5425142834032632
31.900000000000183,-0.5533319007273579
32.000000000000185,-0.5600242308712616
32.100000000000186,-0.5611010554260933
32.20000000000019,-0.5699151344167093
32.30000000000019,-0.5724788034683768
32.40000000000019,-0.581872121631269
32.50000000000019,-0.5858500154198523
32.60000000000019,-0.593518197739403
32.700000000000195,-0.5973715234916978
32.800000000000196,-0.6005058317245643
32.9000000000002,-0.5962396314571825
33.0000000000002,-0.5873535972202925
33.1000000000002,-0.5726922322819769
33.2000000000002,-0.5498716944758709
33.3000000000002,-0.518702341385347
33.400000000000205,-0.4772111861696104
33.500000000000206,-0.42285290256792757
33.60000000000021,-0.3543061207440078
33.70000000000021,-0.27033430603116937
33.80000000000021,-0.17091147873452656
33.90000000000021,-0.057912336674751055
34.00000000000021,0.06571991289675096
34.100000000000215,0.1925976889870295
34.200000000000216,0.3163694173335712
34.30000000000022,0.4297838423271224
34.40000000000022,0.5280917099844789
34.50000000000022,0.6074023254741061
34.60000000000022,0.6694513680194717
34.70000000000022,0.7136882226047908
34.800000000000225,0.742430951125092
34.900000000000226,0.7602985372919793
35.00000000000023,0.772018891343121
35.10000000000023,0.7756651078782661
35.20000000000023,0.7737334562302036
35.30000000000023,0.7704877618299317
35.40000000000023,0.7594227848529153
35.500000000000234,0.745190075879131
35.600000000000236,0.7235306613876048
35.70000000000024,0.6942897843029003
35.80000000000024,0.6591195637026839
35.90000000000024,0.6151475399379114
36.00000000000024,0.5615757968469488
36.10000000000024,0.4986016346078889
36.200000000000244,0.4240585092490989
36.300000000000246,0.33689379431545746
36.40000000000025,0.2372304455839471
36.50000000000025,0.1263613551495407
36.60000000000025,0.00675672019315357
36.70000000000025,-0.11438137835812781
36.80000000000025,-0.23303821732298594
36.900000000000254,-0.3415492812472342
37.000000000000256,-0.4353223334575981
37.10000000000026,-0.5098637084961521
37.20000000000026,-0.5635936631397289
37.30000000000026,-0.5976745105044391
37.40000000000026,-0.6122512093552895
37.50000000000026,-0.6103215404048775
37.600000000000264,-0.6004973072596845
37.700000000000266,-0.5807408456638856
37.80000000000027,-0.5574884196759591
37.90000000000027,-0.5342589283308011
38.00000000000027,-0.5102657473262076
38.10000000000027,-0.49500052241991366
38.20000000000027,-0.47569695719074456
38.300000000000274,-0.4640271753191471
38.400000000000276,-0.45345906320623486
38.50000000000028,-0.4410491430727491
38.60000000000028,-0.4328384290042755
38.70000000000028,-0.4229826660209707
38.80000000000028,-0.4119294667281055
38.90000000000028,-0.39865541795803666
39.000000000000284,-0.3816045563266266
39.100000000000286,-0.3581418904774009
39.20000000000029,-0.32861213335727896
39.30000000000029,-0.28689348515115015
39.40000000000029,-0.23504555666129803
39.50000000000029,-0.16835034919131409
39.60000000000029,-0.08834485870226966
39.700000000000294,0.004690333200727877
39.800000000000296,0.1064768669695523
39.9000000000003,0.2138689845823224
40.0000000000003,0.31801279842337044
40.1000000000003,0.41604516748030984
40.2000000000003,0.5019970726739246
40.3000000000003,0.5713832558501923
40.400000000000304,0.6256752988213389
40.500000000000306,0.662404852449944
40.60000000000031,0.6864872872539607
40.70000000000031,0.6989697929305339
40.80000000000031,0.7075516133412116
40.90000000000031,0.7063906621566869
41.00000000000031,0.7038627622132713
41.100000000000314,0.6976121319117066
41.200000000000315,0.6867543255965192
41.30000000000032,0.6719868567590042
41.40000000000032,0.650721509799095
41.50000000000032,0.622990917669242
41.60000000000032,0.5886739942884122
41.70000000000032,0.54755522367875
41.800000000000324,0.49946311332546106
41.900000000000325,0.4444270098858062
42.00000000000033,0.38122668284887984
42.10000000000033,0.3088138757506463
42.20000000000033,0.2267944127252458
42.30000000000033,0.1334806699084764
42.40000000000033,0.03200937635214472
42.500000000000334,-0.07671049712484142
42.600000000000335,-0.18568481200733683
42.70000000000034,-0.2911938749171166
42.80000000000034,-0.3870322520291226
42.90000000000034,-0.4676370161608149
43.00000000000034,-0.5299406308078193
43.10000000000034,-0.5723168848175575
43.200000000000344,-0.5944561594190877
43.300000000000345,-0.5978971489845039
43.40000000000035,-0.5893816977348251
43.50000000000035,-0.5663067674985894
43.60000000000035,-0.5377916733766052
43.70000000000035,-0.5063991732977147
43.80000000000035,-0.4732356577966138
43.900000000000354,-0.44341255195805035
44.000000000000355,-0.41554448453417536
44.10000000000036,-0.3944746987303802
44.20000000000036,-0.37577641201323214
44.30000000000036,-0.36404507392475444
44.40000000000036,-0.3515355870149548
44.50000000000036,-0.34680325757171276
44.600000000000364,-0.33885471115008775
44.700000000000365,-0.3335997722327024
44.80000000000037,-0.32677434032060476
44.90000000000037,-0.3148755976762806
45.00000000000037,-0.2987304009204663
45.10000000000037,-0.27495171354856657
45.20000000000037,-0.2411851702204195
45.300000000000374,-0.1962932551686791
45.400000000000375,-0.13818165564503865
45.50000000000038,-0.06847375577496839
45.60000000000038,0.01342289158671204
45.70000000000038,0.10368450174356005
45.80000000000038,0.19820565871659632
45.90000000000038,0.29214086784774945
46.000000000000384,0.3801669287668169
46.100000000000385,0.45802373890531684
46.20000000000039,0.5218720171101001
46.30000000000039,0.5716680495157775
46.40000000000039,0.607297074946412
46.50000000000039,0.6299282958613788
46.60000000000039,0.6431651313133029
46.700000000000394,0.6479500193390334
46.800000000000395,0.6486786155032832
46.9000000000004,0.6448353483822213
47.0000000000004,0.6383006523043308
47.1000000000004,0.628565072540009
47.2000000000004,0.6154924194947047
47.3000000000004,0.5952284218768368
47.400000000000404,0.5715850282819731
47.500000000000405,0.539919028498919
47.600000000000406,0.50212178406095
47.70000000000041,0.4576444318114895
47.80000000000041,0.40764317782371895
47.90000000000041,0.34919212960793444
48.00000000000041,0.2829771695487671
48.10000000000041,0.20814971678765493
48.200000000000415,0.12363956081407192
48.300000000000416,0.030944836990678293
48.40000000000042,-0.06838668207215667
48.50000000000042,-0.1712715469932376
48.60000000000042,-0.27074511789933053
48.70000000000042,-0.3636953080969587
48.80000000000042,-0.44437965194433676
48.900000000000425,-0.5083753138106163
49.000000000000426,-0.5540655027934843
49.10000000000043,-0.5804621622169465
49.20000000000043,-0.5889948184977492
49.30000000000043,-0.5818109315245432
49.40000000000043,-0.5617959648253716
49.50000000000043,-0.5345625776596746
49.600000000000435,-0.503282614621068
49.700000000000436,-0.4682526273961023
49.80000000000044,-0.43661566107995764
49.90000000000044,-0.4076796991820476
50.00000000000044,-0.37986688342649916
50.10000000000044,-0.36373602146886364
50.20000000000044,-0.3478208300194236
50.300000000000445,-0.3366903090387103
50.400000000000446,-0.328822018645568
50.50000000000045,-0.3245535577109101
50.60000000000045,-0.31954300335996005
50.70000000000045,-0.31315704614725864
50.80000000000045,-0.3040407635374617
50.90000000000045,-0.2894518319644313
51.000000000000455,-0.26870519516410357
51.100000000000456,-0.2383538383735127
51.20000000000046,-0.19753697017999622
51.30000000000046,-0.1445936839639457
51.40000000000046,-0.07944969424881208
51.50000000000046,-0.0037997878968333877
51.60000000000046,0.0821756728059205
51.700000000000465,0.17249376069972044
51.800000000000466,0.2641690694752713
51.90000000000047,0.3499248838324616
52.00000000000047,0.4274656864902555
